Time,Amplitude
0.0,0.0
0.001001001001001001,0.0314421909191206
0.002002002002002002,0.06285329004448194
0.003003003003003003,0.09420223632762625
0.004004004004004004,0.12545803018029603
0.005005005005005005,0.15658976412855768
0.006006006006006006,0.18756665337583714
0.007007007007007007,0.21835806624464543
0.008008008008008008,0.2489335544668916
0.009009009009009009,0.27926288329283006
0.01001001001001001,0.3093160613888689
0.011011011011011011,0.3390633704946752
0.012012012012012012,0.3684753948102499
0.013013013013013013,0.3975230500839129
0.014014014014014014,0.4261776123724353
0.015015015015015015,0.4544107464448774
0.016016016016016016,0.4821945338020477
0.017017017017017015,0.5095015002838731
0.018018018018018018,0.5363046432373825
0.01901901901901902,0.5625774582184371
0.02002002002002002,0.5882939652008051
0.02102102102102102,0.6134287342666618
0.022022022022022022,0.6379569107531119
0.023023023023023025,0.661854239829868
0.024024024024024024,0.6850970904837809
0.025025025025025023,0.7076624788865044
0.026026026026026026,0.7295280911221884
0.02702702702702703,0.7506723052527243
0.028028028028028028,0.7710742126987247
0.029029029029029027,0.7907136389150937
0.03003003003003003,0.809571163340744
0.031031031031031032,0.8276281386027312
0.03203203203203203,0.8448667089558177
0.03303303303303303,0.8612698279392308
0.03403403403403403,0.8768212752331535
0.035035035035035036,0.891505672698284
0.036036036036036036,0.9053084995825966
0.037037037037037035,0.918216106880274
0.03803803803803804,0.9302157308286042
0.03903903903903904,0.9412955055295033
0.04004004004004004,0.9514444746831767
0.04104104104104104,0.960652602422321
0.04204204204204204,0.9689107832361495
0.043043043043043044,0.9762108509744296
0.044044044044044044,0.9825455869226277
0.04504504504504504,0.9879087269401781
0.04604604604604605,0.9922949676548137
0.04704704704704705,0.9956999717068377
0.04804804804804805,0.9981203720381463
0.04904904904904905,0.9995537752217638
0.050050050050050046,0.9999987638285974
0.05105105105105105,0.9994548978290693
0.05205205205205205,0.9979227150282433
0.05305305305305305,0.9954037305340125
0.05405405405405406,0.9919004352588768
0.055055055055055056,0.9874162934567889
0.056056056056056056,0.9819557392975067
0.057057057057057055,0.9755241724818388
0.058058058058058054,0.9681279529021188
0.05905905905905906,0.959774394353189
0.06006006006006006,0.9504717573001116
0.06106106106106106,0.940229240709759
0.062062062062062065,0.9290569729543627
0.06306306306306306,0.9169660017960135
0.06406406406406406,0.9039682834620162
0.06506506506506507,0.8900766708219059
0.06606606606606606,0.875304900677813
0.06706706706706707,0.8596675801807452
0.06806806806806806,0.8431801723862227
0.06906906906906907,0.8258589809635433
0.07007007007007007,0.8077211340738067
0.07107107107107107,0.7887845674326315
0.07207207207207207,0.769068006574317
0.07307307307307308,0.7485909483349906
0.07407407407407407,0.7273736415730488
0.07507507507507508,0.7054370671459531
0.07607607607607608,0.6828029171631891
0.07707707707707707,0.6594935735358961
0.07807807807807808,0.6355320858443841
0.07907907907907907,0.6109421485454231
0.08008008008008008,0.5857480775418393
0.08108108108108109,0.5599747861375954
0.08208208208208208,0.5336477604021226
0.08308308308308308,0.5067930339682726
0.08408408408408408,0.47943716228880995
0.08508508508508508,0.4516071963768954
0.08608608608608609,0.4233306560565345
0.08708708708708708,0.3946355027494411
0.08808808808808809,0.365550111825219
0.0890890890890891,0.33610324454221585
0.09009009009009009,0.3063240196067838
0.09109109109109109,0.2762418843790745
0.0920920920920921,0.2458865857538501
0.09309309309309309,0.21528814074509034
0.0940940940940941,0.18447680680349254
0.09509509509509509,0.15348305189621664
0.0960960960960961,0.12233752437845731
0.0970970970970971,0.09107102268664065
0.0980980980980981,0.05971446488321034
0.0990990990990991,0.028298858083118276
0.10010010010010009,-0.0031447322077359985
0.1011011011011011,-0.03458521281181722
0.1021021021021021,-0.06599149362662067
0.1031031031031031,-0.09733251836830219
0.1041041041041041,-0.12857729528186848
0.10510510510510511,-0.1596949277875495
0.1061061061061061,-0.19065464503306445
0.10710710710710711,-0.22142583232155888
0.10810810810810811,-0.2519780613851252
0.1091091091091091,-0.2822811204739715
0.11011011011011011,-0.3123050442314895
0.1111111111111111,-0.3420201433256682
0.11211211211211211,-0.3713970338075679
0.11311311311311312,-0.40040666616780385
0.11411411411411411,-0.4290203540623263
0.11511511511511512,-0.4572098026790792
0.11611611611611611,-0.4849471367174873
0.11711711711711711,-0.5122049279531141
0.11811811811811812,-0.5389562223602165
0.11911911911911911,-0.5651745667653927
0.12012012012012012,-0.5908340350059578
0.12112112112112113,-0.6159092535671795
0.12212212212212212,-0.6403754266730258
0.12312312312312312,-0.664208360805614
0.12412412412412413,-0.6873844886291102
0.12512512512512514,-0.7098808922944286
0.12612612612612611,-0.731675326101678
0.12712712712712712,-0.7527462384979546
0.12812812812812813,-0.7730727933887175
0.12912912912912913,-0.7926348907416847
0.13013013013013014,-0.8114131864628659
0.13113113113113112,-0.8293891115250824
0.13213213213213212,-0.8465448903300604
0.13313313313313313,-0.8628635582859311
0.13413413413413414,-0.8783289785827688
0.13513513513513514,-0.8929258581495684
0.13613613613613612,-0.906639762776889
0.13713713713713713,-0.9194571313902051
0.13813813813813813,-0.931365289459854
0.13913913913913914,-0.9423524615343186
0.14014014014014015,-0.9524077828844515
0.14114114114114115,-0.9615213102471256
0.14214214214214213,-0.9696840316576876
0.14314314314314314,-0.9768878753614926
0.14414414414414414,-0.9831257177957041
0.14514514514514515,-0.9883913906334727
0.14614614614614616,-0.9926796868835203
0.14714714714714713,-0.9959863660391043
0.14814814814814814,-0.9983081582712682
0.14914914914914915,-0.9996427676622299
0.15015015015015015,-0.999988874475714
0.15115115115115116,-0.9993461364619809
0.15215215215215216,-0.9977151891962615
0.15315315315315314,-0.9950976454502661
0.15415415415415415,-0.9914960935973849
0.15515515515515516,-0.9869140950531601
0.15615615615615616,-0.9813561807535595
0.15715715715715717,-0.9748278466745341
0.15815815815815815,-0.9673355483972903
0.15915915915915915,-0.9588866947246498
0.16016016016016016,-0.9494896403548133
0.16116116116116116,-0.939153677619768
0.16216216216216217,-0.9278890272965095
0.16316316316316315,-0.9157068285001695
0.16416416416416416,-0.9026191276690343
0.16516516516516516,-0.888638866652356
0.16616616616616617,-0.8737798699127286
0.16716716716716717,-0.8580568308556874
0.16816816816816815,-0.8414852973000504
0.16916916916916916,-0.8240816561033645
0.17017017017017017,-0.8058631169576695
0.17117117117117117,-0.7868476953715903
0.17217217217217218,-0.7670541948555989
0.17317317317317318,-0.746502188328052
0.17417417417417416,-0.7252119987603977
0.17517517517517517,-0.7032046790806841
0.17617617617617617,-0.6805019913552525
0.17717717717717718,-0.6571263852691884
0.1781781781781782,-0.6331009759268209
0.17917917917917917,-0.6084495209942179
0.18018018018018017,-0.5831963972062739
0.18118118118118118,-0.5573665762616425
0.18218218218218218,-0.5309856001293205
0.1831831831831832,-0.5040795557913246
0.1841841841841842,-0.47667504944642713
0.18518518518518517,-0.44879918020046244
0.18618618618618618,-0.42047951326921434
0.1871871871871872,-0.3917440527203979
0.1881881881881882,-0.3626212137816673
0.1891891891891892,-0.3331397947420577
0.19019019019019018,-0.3033289484746273
0.19119119119119118,-0.2732181536084663
0.1921921921921922,-0.24283718537858734
0.1931931931931932,-0.21221608618250784
0.1941941941941942,-0.18138513587265076
0.19519519519519518,-0.150374821813937
0.1961961961961962,-0.11921580873617425
0.1971971971971972,-0.08793890841106189
0.1981981981981982,-0.056575049183792726
0.1991991991991992,-0.02515524538937595
0.20020020020020018,0.006289433316067026
0.2012012012012012,0.03772789267871672
0.2022022022022022,0.06912904459478435
0.2032032032032032,0.10046183785216803
0.2042042042042042,0.13169528883562395
0.20520520520520522,0.16279851216509406
0.2062062062062062,0.19374075123689677
0.2072072072072072,0.224491408637572
0.2082082082082082,0.2550200764003101
0.2092092092092092,0.2852965660740497
0.21021021021021022,0.3152909385755026
0.2112112112112112,0.34497353379459006
0.2122122122122122,0.37431499992401873
0.2132132132132132,0.4032863224839805
0.21421421421421422,0.4318588530132969
0.21521521521521522,0.46000433739861074
0.21621621621621623,0.48769494381363454
0.2172172172172172,0.5149032902408122
0.2182182182182182,0.5416024715481897
0.21921921921921922,0.5677660860947078
0.22022022022022023,0.5933682618376205
0.22122122122122123,0.6183836819162157
0.2222222222222222,0.6427876096865385
0.22322322322322322,0.6665559131823714
0.22422422422422422,0.6896650889782615
0.22522522522522523,0.7120922854310253
0.22622622622622623,0.7338153252767277
0.2272272272272272,0.7548127275607984
0.22822822822822822,0.7750637288796014
0.22922922922922923,0.7945483039124436
0.23023023023023023,0.8132471852237331
0.23123123123123124,0.8311418823156933
0.23223223223223222,0.8482146999128017
0.23323323323323322,0.8644487554598645
0.23423423423423423,0.8798279958164291
0.23523523523523523,0.8943372131310271
0.23623623623623624,0.9079620598795463
0.23723723723723725,0.9206890630528632
0.23823823823823823,0.9325056374797073
0.23923923923923923,0.9434000982715809
0.24024024024024024,0.9533616723774291
0.24124124124124124,0.9623805092366334
0.24224224224224225,0.970447690519797
0.24324324324324323,0.977555238947686
0.24424424424424424,0.98369612617961
0.24524524524524524,0.9888642797634357
0.24624624624624625,0.9930545891403677
0.24724724724724725,0.9962629106985544
0.24824824824824826,0.9984860718705224
0.24924924924924924,0.9997218742703887
0.2502502502502503,0.9999690958677468
0.25125125125125125,0.9992274921960794
0.25225225225225223,0.9974977965944998
0.25325325325325326,0.9947817194825853
0.25425425425425424,0.9910819466690197
0.2552552552552553,0.9864021366957144
0.25625625625625625,0.9807469172200398
0.25725725725725723,0.9741218804387364
0.25825825825825827,0.9665335775580415
0.25925925925925924,0.9579895123154889
0.2602602602602603,0.9484981335597952
0.26126126126126126,0.9380688268961663
0.26226226226226224,0.9267119054052854
0.26326326326326327,0.914438599445166
0.26426426426426425,0.9012610455459449
0.2652652652652653,0.8871922744086042
0.26626626626626626,0.8722461980194862
0.26726726726726724,0.8564375958933467
0.2682682682682683,0.8397821004585394
0.26926926926926925,0.8222961815988099
0.2702702702702703,0.803997130366941
0.27127127127127126,0.7849030418864047
0.27227227227227224,0.7650327974578912
0.2732732732732733,0.7444060458884189
0.27427427427427425,0.7230431840615102
0.2752752752752753,0.700965336767597
0.27627627627627627,0.678194335814667
0.2772772772772773,0.654752698439734
0.2782782782782783,0.6306636050425575
0.27927927927927926,0.6059508762635496
0.2802802802802803,0.5806389494286054
0.28128128128128127,0.5547528543841181
0.2822822822822823,0.5283181887460507
0.2832832832832833,0.5013610925876065
0.28428428428428426,0.4739082225904436
0.2852852852852853,0.4459867256850762
0.2862862862862863,0.4176242122064669
0.2872872872872873,0.3888487285913872
0.2882882882882883,0.35968872964453685
0.28928928928928926,0.3301730504008376
0.2902902902902903,0.3003308776117511
0.2912912912912913,0.2701917208837825
0.2922922922922923,0.2397853834977361
0.2932932932932933,0.20914193293756722
0.29429429429429427,0.17829167115797728
0.2952952952952953,0.14726510462014047
0.2962962962962963,0.11609291412523105
0.2972972972972973,0.08480592447550975
0.2982982982982983,0.05343507399305771
0.29929929929929927,0.02201138392622936
0.3003003003003003,-0.009434072225897
0.3013013013013013,-0.04087019944071032
0.3023023023023023,-0.07226591192058777
0.3033033033033033,-0.10359016383223858
0.30430430430430433,-0.13481198000658376
0.3053053053053053,-0.16590048656871317
0.3063063063063063,-0.19682494146770374
0.3073073073073073,-0.22755476487608273
0.3083083083083083,-0.2580595694288491
0.30930930930930933,-0.2883091902722227
0.3103103103103103,-0.31827371489230794
0.3113113113113113,-0.34792351269428357
0.3123123123123123,-0.3772292643027698
0.3133133133133133,-0.40616199055447094
0.31431431431431434,-0.43469308115439603
0.3153153153153153,-0.46279432296729806
0.3163163163163163,-0.4904379279164198
0.3173173173173173,-0.517596560461878
0.3183183183183183,-0.5442433646315789
0.31931931931931934,-0.5703519905779014
0.3203203203203203,-0.5958966206338979
0.3213213213213213,-0.6208519948432426
0.32232232232232233,-0.6451934359386927
0.3233233233233233,-0.6688968737443389
0.32432432432432434,-0.6919388689775459
0.3253253253253253,-0.7142966364270208
0.3263263263263263,-0.7359480674841022
0.32732732732732733,-0.756871752004992
0.3283283283283283,-0.7770469994822877
0.32932932932932935,-0.7964538595049296
0.3303303303303303,-0.8150731414862619
0.3313313313313313,-0.8328864336407723
0.33233233233233234,-0.8498761211906863
0.3333333333333333,-0.8660254037844378
0.33433433433433435,-0.8813183121098073
0.3353353353353353,-0.8957397236852549
0.3363363363363363,-0.9092753778138881
0.33733733733733734,-0.9219118896852249
0.3383383383383383,-0.933636763610846
0.33933933933933935,-0.9444384053808289
0.34034034034034033,-0.9543061337287484
0.34134134134134136,-0.9632301908939127
0.34234234234234234,-0.9712017522703761
0.3433433433433433,-0.9782129351332083
0.34434434434434436,-0.9842568064333685
0.34534534534534533,-0.9893273896534935
0.34634634634634637,-0.9934196707178107
0.34734734734734735,-0.9965296029503368
0.3483483483483483,-0.9986541110764564
0.34934934934934936,-0.9997910942639261
0.35035035035035034,-0.9999394282002937
0.35135135135135137,-0.9990989662046815
0.35235235235235235,-0.9972705393728327
0.3533533533533533,-0.9944559557552777
0.35435435435435436,-0.9906579985694317
0.35535535535535534,-0.985880423447396
0.3563563563563564,-0.9801279547221764
0.35735735735735735,-0.9734062807560028
0.35835835835835833,-0.9657220483153551
0.35935935935935936,-0.9570828559982708
0.36036036036036034,-0.9474972467204302
0.3613613613613614,-0.9369746992674379
0.36236236236236236,-0.9255256189216783
0.36336336336336333,-0.9131613271729836
0.36436436436436437,-0.8998940505233184
0.36536536536536535,-0.8857369083965303
0.3663663663663664,-0.8707039001651274
0.36736736736736736,-0.8548098913069268
0.3683683683683684,-0.8380705987052262
0.36936936936936937,-0.820502575107088
0.37037037037037035,-0.8021231927550442
0.3713713713713714,-0.7829506262084633
0.37237237237237236,-0.7630038343715273
0.3733733733733734,-0.7423025417456092
0.3743743743743744,-0.7208672189245859
0.37537537537537535,-0.6987190623523681
0.3763763763763764,-0.6758799733626797
0.37737737737737737,-0.6523725365217914
0.3783783783783784,-0.6282199972956425
0.3793793793793794,-0.6034462390634262
0.38038038038038036,-0.5780757595003719
0.3813813813813814,-0.5521336463530697
0.38238238238238237,-0.5256455526313215
0.3833833833833834,-0.49863767124099206
0.3843843843843844,-0.4711367090830182
0.38538538538538536,-0.44316986064412783
0.3863863863863864,-0.4147647811054069
0.38738738738738737,-0.38594955899533
0.3883883883883884,-0.35675268841423113
0.3893893893893894,-0.3272030408577724
0.39039039039039036,-0.2973298366671729
0.3913913913913914,-0.26716261613452164
0.3923923923923924,-0.2367312102916815
0.3933933933933934,-0.20606571141169233
0.3943943943943944,-0.17519644325187023
0.39539539539539537,-0.1441539310679593
0.3963963963963964,-0.11296887142907358
0.3973973973973974,-0.08167210186320711
0.3983983983983984,-0.050294570363366396
0.3993993993993994,-0.01886730478446703
0.40040040040040037,0.012578617838739611
0.4014014014014014,0.044012102022380484
0.4024024024024024,0.07540206458240069
0.4034034034034034,0.10671746537135826
0.4044044044044044,0.13792733797265322
0.40540540540540543,0.16900082032184896
0.4064064064064064,0.19990718522480475
0.4074074074074074,0.23061587074243886
0.4084084084084084,0.2610965104120889
0.4094094094094094,0.2913189632755464
0.41041041041041043,0.3212533436841432
0.4114114114114114,0.3508700508513302
0.4124124124124124,0.38013979812359505
0.4134134134134134,0.40903364194074615
0.4144144144144144,0.43752301045690317
0.41541541541541543,0.46557973179395784
0.4164164164164164,0.49317606189947377
0.4174174174174174,0.5202847119815786
0.4184184184184184,0.5468788754936272
0.4194194194194194,0.5729322546420186
0.42042042042042044,0.5984190863909271
0.4214214214214214,0.6233141679382158
0.4224224224224224,0.6475928816373934
0.42342342342342343,0.6712312193409022
0.4244244244244244,0.6942058061407224
0.42542542542542544,0.7164939234827832
0.4264264264264264,0.7380735316323379
0.4274274274274274,0.758923291468088
0.42842842842842843,0.7790225855834905
0.4294294294294294,0.7983515386744054
0.43043043043043044,0.8168910371929051
0.4314314314314314,0.8346227482478172
0.43243243243243246,0.8515291377333113
0.43343343343343343,0.8675934876676015
0.4344344344344344,0.882799912724619
0.43543543543543545,0.8971333759423137
0.4364364364364364,0.9105797035920353
0.43743743743743746,0.9231255991943121
0.43843843843843844,0.934758656667151
0.4394394394394394,0.9454673725938629
0.44044044044044045,0.955241157598287
0.44144144144144143,0.9640703468161503
0.44244244244244246,0.9719462094522339
0.44344344344344344,0.9788609574138614
0.4444444444444444,0.9848077530122077
0.44544544544544545,0.9897807157237835
0.44644644644644643,0.993774928005424
0.44744744744744747,0.9967864401570343
0.44844844844844844,0.9988122742272691
0.4494494494494494,0.9998504269583004
0.45045045045045046,0.9998998717667489
0.45145145145145144,0.9989605597588275
0.45245245245245247,0.9970334197786902
0.45345345345345345,0.9941203574899394
0.4544544544544544,0.9902242534911987
0.45545545545545546,0.9853489604676167
0.45645645645645644,0.9794992993811166
0.4574574574574575,0.9726810547031601
0.45845845845845845,0.9649009686947391
0.45945945945945943,0.9561667347392514
0.46046046046046046,0.9464869897348523
0.46146146146146144,0.9358713055538125
0.4624624624624625,0.9243301795773087
0.46346346346346345,0.911875024315034
0.46446446446446443,0.8985181561198682
0.46546546546546547,0.8842727830087778
0.46646646646646645,0.8691529916019997
0.4674674674674675,0.8531737331933925
0.46846846846846846,0.8363508089657767
0.4694694694694695,0.8187008543658285
0.47047047047047047,0.8002413226540324
0.47147147147147145,0.7809904676459187
0.4724724724724725,0.7609673256616676
0.47347347347347346,0.7401916967019445
0.4744744744744745,0.7186841248685379
0.4754754754754755,0.6964658780492224
0.47647647647647645,0.6735589268868664
0.4774774774774775,0.649985923053647
0.47847847847847846,0.6257701768518074
0.4794794794794795,0.6009356341631228
0.4804804804804805,0.5755068527698911
0.48148148148148145,0.549508978070807
0.4824824824824825,0.5229677182158032
0.48348348348348347,0.49590931868439
0.4844844844844845,0.46836053633266084
0.4854854854854855,0.44034861293461935
0.48648648648648646,0.4119012482439941
0.4874874874874875,0.3830465726031689
0.48848848848848847,0.35381311912633967
0.4894894894894895,0.32422979548437164
0.4904904904904905,0.29432585531928224
0.49149149149149146,0.26413086931660823
0.4924924924924925,0.2336746959642524
0.4934934934934935,0.20298745202676277
0.4944944944944945,0.17209948276416845
0.4954954954954955,0.14104133192492024
0.4964964964964965,0.10984371154250068
0.4974974974974975,0.07853747156567001
0.4984984984984985,0.04715356935230757
0.4994994994994995,0.015723039057040856
0.5005005005005005,-0.015723039057041407
0.5015015015015015,-0.04715356935230634
0.5025025025025025,-0.07853747156566879
0.5035035035035035,-0.10984371154249946
0.5045045045045045,-0.14104133192491727
0.5055055055055055,-0.172099482764169
0.5065065065065065,-0.20298745202676155
0.5075075075075075,-0.2336746959642512
0.5085085085085085,-0.26413086931660534
